#
# Table I RYDBERG-KLEIN-REES POTENTIAL FOR THE X1Sigma+ STATE OF THE CO MOLECULE
#
# Y00 = 0.19005 Should be subtracted before comparison
# 
# r (A)    E(cm^-1)
0.8881042  51329.2788
0.8906787  49874.0946
0.8933527  48394.4497
0.8961328  46890.2779
0.8990257  45361.5087
0.9020390  43808.0682
0.9051810  42229.8794
0.9084610  40626.8630
0.9118894  38998.9374
0.9154776  37346.0199
0.9192388  35668.0262
0.9231879  33964.8717
0.9273420  32236.4713
0.9317210  30482.7399
0.9363480  28703.5928
0.9412504  26898.9457
0.9464607  25068.7152
0.9520183  23212.8188
0.9579717  21331.1753
0.9643814  19423.7047
0.9713245  17490.3285
0.9789024  15530.9695
0.9872518  13545.5522
0.9965658  11534.0025
1.0071318   9496.2479
1.0194117   7432.2173
1.0342380   5341.8409
1.0534379   3225.0502
1.0833250   1081.7778
1.1787898    1081.7778
1.2196316    3225.0502
1.2499077    5341.8409
1.2759345    7432.2173
1.2995416    9496.2479
1.3215644   11534.0025
1.3424675   13545.5522
1.3625412   15530.9695
1.3819816   17490.3285
1.4009285   19423.7047
1.4194864   21331.1753
1.4377358   23212.8188
1.4557405   25068.7152
1.4735523   26898.9457
1.4912144   28703.5928
1.5087630   30482.7399
1.5262293   32236.4713
1.5436404   33964.8717
1.5610203   35668.0262
1.5783905   37346.0199
1.5957703   38998.9374
1.6131775   40626.8630
1.6306286   42229.8794
1.6481390   43808.0682
1.6657233   45361.5087
1.6833955   46890.2779
1.7011689   48394.4497
1.7190567   49874.0946
1.7370719   51329.2788
